# npts = 576
# num of variables = 6
# density
# temperature
# pressure
# carbon-12
# oxygen-16
# neon-22
200000.0 1398895000.0 700000000.0 0.0 0.4 0.57 0.03
600000.0 1398774000.0 699969500.0 0.0 0.4 0.57 0.03
1000000.0 1398533000.0 699908600.0 0.0 0.4 0.57 0.03
1400000.0 1398171000.0 699817200.0 0.0 0.4 0.57 0.03
1800000.0 1397689000.0 699695400.0 0.0 0.4 0.57 0.03
2200000.0 1397087000.0 699543200.0 0.0 0.4 0.57 0.03
2600000.0 1396365000.0 699360700.0 0.0 0.4 0.57 0.03
3000000.0 1395523000.0 699147800.0 0.0 0.4 0.57 0.03
3400000.0 1394561000.0 698904600.0 0.0 0.4 0.57 0.03
3800000.0 1393480000.0 698631200.0 0.0 0.4 0.57 0.03
4200000.0 1392281000.0 698327600.0 0.0 0.4 0.57 0.03
4600000.0 1390963000.0 697993900.0 0.0 0.4 0.57 0.03
5000000.0 1389527000.0 697630100.0 0.0 0.4 0.57 0.03
5400000.0 1387973000.0 697236400.0 0.0 0.4 0.57 0.03
5800000.0 1386302000.0 696812700.0 0.0 0.4 0.57 0.03
6200000.0 1384515000.0 696359200.0 0.0 0.4 0.57 0.03
6600000.0 1382612000.0 695876000.0 0.0 0.4 0.57 0.03
7000000.0 1380593000.0 695363200.0 0.0 0.4 0.57 0.03
7400000.0 1378460000.0 694820800.0 0.0 0.4 0.57 0.03
7800000.0 1376213000.0 694249000.0 0.0 0.4 0.57 0.03
8200000.0 1373852000.0 693647900.0 0.0 0.4 0.57 0.03
8600000.0 1371379000.0 693017600.0 0.0 0.4 0.57 0.03
9000000.0 1368794000.0 692358200.0 0.0 0.4 0.57 0.03
9400000.0 1366098000.0 691669800.0 0.0 0.4 0.57 0.03
9800000.0 1363292000.0 690952700.0 0.0 0.4 0.57 0.03
10200000.0 1360377000.0 690206800.0 0.0 0.4 0.57 0.03
10600000.0 1357354000.0 689432400.0 0.0 0.4 0.57 0.03
11000000.0 1354223000.0 688629600.0 0.0 0.4 0.57 0.03
11400000.0 1350986000.0 687798600.0 0.0 0.4 0.57 0.03
11800000.0 1347644000.0 686939500.0 0.0 0.4 0.57 0.03
12200000.0 1344197000.0 686052500.0 0.0 0.4 0.57 0.03
12600000.0 1340647000.0 685137800.0 0.0 0.4 0.57 0.03
13000000.0 1336995000.0 684195500.0 0.0 0.4 0.57 0.03
13400000.0 1333241000.0 683225700.0 0.0 0.4 0.57 0.03
13800000.0 1329388000.0 682228800.0 0.0 0.4 0.57 0.03
14200000.0 1325437000.0 681204800.0 0.0 0.4 0.57 0.03
14600000.0 1321387000.0 680154000.0 0.0 0.4 0.57 0.03
15000000.0 1317242000.0 679076500.0 0.0 0.4 0.57 0.03
15400000.0 1313001000.0 677972600.0 0.0 0.4 0.57 0.03
15800000.0 1308667000.0 676842500.0 0.0 0.4 0.57 0.03
16200000.0 1304240000.0 675686300.0 0.0 0.4 0.57 0.03
16600000.0 1299722000.0 674504300.0 0.0 0.4 0.57 0.03
17000000.0 1295114000.0 673296700.0 0.0 0.4 0.57 0.03
17400000.0 1290418000.0 672063700.0 0.0 0.4 0.57 0.03
17800000.0 1285635000.0 670805500.0 0.0 0.4 0.57 0.03
18200000.0 1280766000.0 669522400.0 0.0 0.4 0.57 0.03
18600000.0 1275813000.0 668214600.0 0.0 0.4 0.57 0.03
19000000.0 1270777000.0 666882300.0 0.0 0.4 0.57 0.03
19400000.0 1265660000.0 665525800.0 0.0 0.4 0.57 0.03
19800000.0 1260463000.0 664145200.0 0.0 0.4 0.57 0.03
20200000.0 1255187000.0 662741000.0 0.0 0.4 0.57 0.03
20600000.0 1249835000.0 661313200.0 0.0 0.4 0.57 0.03
21000000.0 1244407000.0 659862100.0 0.0 0.4 0.57 0.03
21400000.0 1238905000.0 658388100.0 0.0 0.4 0.57 0.03
21800000.0 1233330000.0 656891300.0 0.0 0.4 0.57 0.03
22200000.0 1227685000.0 655372000.0 0.0 0.4 0.57 0.03
22600000.0 1221970000.0 653830500.0 0.0 0.4 0.57 0.03
23000000.0 1216188000.0 652267000.0 0.0 0.4 0.57 0.03
23400000.0 1210340000.0 650681800.0 0.0 0.4 0.57 0.03
23800000.0 1204427000.0 649075200.0 0.0 0.4 0.57 0.03
24200000.0 1198451000.0 647447400.0 0.0 0.4 0.57 0.03
24600000.0 1192413000.0 645798700.0 0.0 0.4 0.57 0.03
25000000.0 1186316000.0 644129500.0 0.0 0.4 0.57 0.03
25400000.0 1180161000.0 642439800.0 0.0 0.4 0.57 0.03
25800000.0 1173949000.0 640730200.0 0.0 0.4 0.57 0.03
26200000.0 1167682000.0 639000700.0 0.0 0.4 0.57 0.03
26600000.0 1161361000.0 637251700.0 0.0 0.4 0.57 0.03
27000000.0 1154989000.0 635483600.0 0.0 0.4 0.57 0.03
27400000.0 1148566000.0 633696500.0 0.0 0.4 0.57 0.03
27800000.0 1142094000.0 631890700.0 0.0 0.4 0.57 0.03
28200000.0 1135576000.0 630066600.0 0.0 0.4 0.57 0.03
28600000.0 1129012000.0 628224500.0 0.0 0.4 0.57 0.03
29000000.0 1122404000.0 626364600.0 0.0 0.4 0.57 0.03
29400000.0 1115754000.0 624487100.0 0.0 0.4 0.57 0.03
29800000.0 1109063000.0 622592500.0 0.0 0.4 0.57 0.03
30200000.0 1102332000.0 620681000.0 0.0 0.4 0.57 0.03
30600000.0 1095564000.0 618752900.0 0.0 0.4 0.57 0.03
31000000.0 1088761000.0 616808400.0 0.0 0.4 0.57 0.03
31400000.0 1081922000.0 614848000.0 0.0 0.4 0.57 0.03
31800000.0 1075051000.0 612871800.0 0.0 0.4 0.57 0.03
32200000.0 1068148000.0 610880200.0 0.0 0.4 0.57 0.03
32600000.0 1061215000.0 608873400.0 0.0 0.4 0.57 0.03
33000000.0 1054254000.0 606851800.0 0.0 0.4 0.57 0.03
33400000.0 1047266000.0 604815700.0 0.0 0.4 0.57 0.03
33800000.0 1040253000.0 602765300.0 0.0 0.4 0.57 0.03
34200000.0 1033216000.0 600701000.0 0.0 0.4 0.57 0.03
34600000.0 1026157000.0 598623000.0 0.0 0.4 0.57 0.03
35000000.0 1019077000.0 596531600.0 0.0 0.4 0.57 0.03
35400000.0 1011978000.0 594427200.0 0.0 0.4 0.57 0.03
35800000.0 1004862000.0 592310000.0 0.0 0.4 0.57 0.03
36200000.0 997728400.0 590180300.0 0.0 0.4 0.57 0.03
36600000.0 990580100.0 588038500.0 0.0 0.4 0.57 0.03
37000000.0 983418100.0 585884800.0 0.0 0.4 0.57 0.03
37400000.0 976244000.0 583719400.0 0.0 0.4 0.57 0.03
37800000.0 969059100.0 581542800.0 0.0 0.4 0.57 0.03
38200000.0 961864900.0 579355100.0 0.0 0.4 0.57 0.03
38600000.0 954662700.0 577156800.0 0.0 0.4 0.57 0.03
39000000.0 947454000.0 574947900.0 0.0 0.4 0.57 0.03
39400000.0 940239900.0 572729000.0 0.0 0.4 0.57 0.03
39800000.0 933021800.0 570500200.0 0.0 0.4 0.57 0.03
40200000.0 925801100.0 568261800.0 0.0 0.4 0.57 0.03
40600000.0 918578900.0 566014100.0 0.0 0.4 0.57 0.03
41000000.0 911356400.0 563757400.0 0.0 0.4 0.57 0.03
41400000.0 904135000.0 561492100.0 0.0 0.4 0.57 0.03
41800000.0 896915800.0 559218200.0 0.0 0.4 0.57 0.03
42200000.0 889699900.0 556936200.0 0.0 0.4 0.57 0.03
42600000.0 882488600.0 554646300.0 0.0 0.4 0.57 0.03
43000000.0 875283000.0 552348800.0 0.0 0.4 0.57 0.03
43400000.0 868084200.0 550044000.0 0.0 0.4 0.57 0.03
43800000.0 860893300.0 547732100.0 0.0 0.4 0.57 0.03
44200000.0 853711500.0 545413400.0 0.0 0.4 0.57 0.03
44600000.0 846539900.0 543088200.0 0.0 0.4 0.57 0.03
45000000.0 839379400.0 540756700.0 0.0 0.4 0.57 0.03
45400000.0 832231300.0 538419200.0 0.0 0.4 0.57 0.03
45800000.0 825096400.0 536076000.0 0.0 0.4 0.57 0.03
46200000.0 817976000.0 533727300.0 0.0 0.4 0.57 0.03
46600000.0 810871000.0 531373400.0 0.0 0.4 0.57 0.03
47000000.0 803782500.0 529014600.0 0.0 0.4 0.57 0.03
47400000.0 796711400.0 526651000.0 0.0 0.4 0.57 0.03
47800000.0 789658400.0 524283100.0 0.0 0.4 0.57 0.03
48200000.0 782624600.0 521910900.0 0.0 0.4 0.57 0.03
48600000.0 775610700.0 519534800.0 0.0 0.4 0.57 0.03
49000000.0 768617900.0 517154900.0 0.0 0.4 0.57 0.03
49400000.0 761647000.0 514771700.0 0.0 0.4 0.57 0.03
49800000.0 754698800.0 512385200.0 0.0 0.4 0.57 0.03
50200000.0 747774300.0 509995800.0 0.0 0.4 0.57 0.03
50600000.0 740874000.0 507603600.0 0.0 0.4 0.57 0.03
51000000.0 733999000.0 505208900.0 0.0 0.4 0.57 0.03
51400000.0 727149800.0 502812000.0 0.0 0.4 0.57 0.03
51800000.0 720327200.0 500413000.0 0.0 0.4 0.57 0.03
52200000.0 713531800.0 498012200.0 0.0 0.4 0.57 0.03
52600000.0 706764500.0 495609900.0 0.0 0.4 0.57 0.03
53000000.0 700025700.0 493206100.0 0.0 0.4 0.57 0.03
53400000.0 693316100.0 490801300.0 0.0 0.4 0.57 0.03
53800000.0 686636500.0 488395500.0 0.0 0.4 0.57 0.03
54200000.0 679987300.0 485989000.0 0.0 0.4 0.57 0.03
54600000.0 673369200.0 483582100.0 0.0 0.4 0.57 0.03
55000000.0 666782900.0 481174800.0 0.0 0.4 0.57 0.03
55400000.0 660228700.0 478767400.0 0.0 0.4 0.57 0.03
55800000.0 653707500.0 476360200.0 0.0 0.4 0.57 0.03
56200000.0 647219700.0 473953300.0 0.0 0.4 0.57 0.03
56600000.0 640765900.0 471546900.0 0.0 0.4 0.57 0.03
57000000.0 634346600.0 469141300.0 0.0 0.4 0.57 0.03
57400000.0 627962300.0 466736600.0 0.0 0.4 0.57 0.03
57800000.0 621613200.0 464332900.0 0.0 0.4 0.57 0.03
58200000.0 615299900.0 461930600.0 0.0 0.4 0.57 0.03
58600000.0 609023000.0 459529800.0 0.0 0.4 0.57 0.03
59000000.0 602782800.0 457130600.0 0.0 0.4 0.57 0.03
59400000.0 596579800.0 454733300.0 0.0 0.4 0.57 0.03
59800000.0 590414300.0 452338100.0 0.0 0.4 0.57 0.03
60200000.0 584286800.0 449945000.0 0.0 0.4 0.57 0.03
60600000.0 578197500.0 447554300.0 0.0 0.4 0.57 0.03
61000000.0 572146700.0 445166200.0 0.0 0.4 0.57 0.03
61400000.0 566134800.0 442780800.0 0.0 0.4 0.57 0.03
61800000.0 560161900.0 440398300.0 0.0 0.4 0.57 0.03
62200000.0 554228400.0 438018800.0 0.0 0.4 0.57 0.03
62600000.0 548334400.0 435642500.0 0.0 0.4 0.57 0.03
63000000.0 542480300.0 433269600.0 0.0 0.4 0.57 0.03
63400000.0 536666200.0 430900200.0 0.0 0.4 0.57 0.03
63800000.0 530892400.0 428534500.0 0.0 0.4 0.57 0.03
64200000.0 525159100.0 426172600.0 0.0 0.4 0.57 0.03
64600000.0 519466500.0 423814700.0 0.0 0.4 0.57 0.03
65000000.0 513815000.0 421460800.0 0.0 0.4 0.57 0.03
65400000.0 508204600.0 419111200.0 0.0 0.4 0.57 0.03
65800000.0 502635600.0 416766000.0 0.0 0.4 0.57 0.03
66200000.0 497107900.0 414425400.0 0.0 0.4 0.57 0.03
66600000.0 491621700.0 412089400.0 0.0 0.4 0.57 0.03
67000000.0 486177300.0 409758100.0 0.0 0.4 0.57 0.03
67400000.0 480774600.0 407431800.0 0.0 0.4 0.57 0.03
67800000.0 475414000.0 405110600.0 0.0 0.4 0.57 0.03
68200000.0 470095500.0 402794500.0 0.0 0.4 0.57 0.03
68600000.0 464819000.0 400483700.0 0.0 0.4 0.57 0.03
69000000.0 459584800.0 398178400.0 0.0 0.4 0.57 0.03
69400000.0 454392700.0 395878500.0 0.0 0.4 0.57 0.03
69800000.0 449242800.0 393584400.0 0.0 0.4 0.57 0.03
70200000.0 444135200.0 391295900.0 0.0 0.4 0.57 0.03
70600000.0 439069600.0 389013400.0 0.0 0.4 0.57 0.03
71000000.0 434046300.0 386736800.0 0.0 0.4 0.57 0.03
71400000.0 429065100.0 384466300.0 0.0 0.4 0.57 0.03
71800000.0 424126000.0 382201900.0 0.0 0.4 0.57 0.03
72200000.0 419229100.0 379943900.0 0.0 0.4 0.57 0.03
72600000.0 414374300.0 377692200.0 0.0 0.4 0.57 0.03
73000000.0 409561600.0 375447000.0 0.0 0.4 0.57 0.03
73400000.0 404791000.0 373208300.0 0.0 0.4 0.57 0.03
73800000.0 400062500.0 370976300.0 0.0 0.4 0.57 0.03
74200000.0 395375900.0 368751000.0 0.0 0.4 0.57 0.03
74600000.0 390731100.0 366532600.0 0.0 0.4 0.57 0.03
75000000.0 386128000.0 364321000.0 0.0 0.4 0.57 0.03
75400000.0 381566800.0 362116500.0 0.0 0.4 0.57 0.03
75800000.0 377047200.0 359919100.0 0.0 0.4 0.57 0.03
76200000.0 372569300.0 357728800.0 0.0 0.4 0.57 0.03
76600000.0 368132800.0 355545700.0 0.0 0.4 0.57 0.03
77000000.0 363737600.0 353369900.0 0.0 0.4 0.57 0.03
77400000.0 359383600.0 351201600.0 0.0 0.4 0.57 0.03
77800000.0 355070600.0 349040600.0 0.0 0.4 0.57 0.03
78200000.0 350798400.0 346887200.0 0.0 0.4 0.57 0.03
78600000.0 346566900.0 344741400.0 0.0 0.4 0.57 0.03
79000000.0 342375900.0 342603100.0 0.0 0.4 0.57 0.03
79400000.0 338225200.0 340472600.0 0.0 0.4 0.57 0.03
79800000.0 334114800.0 338349900.0 0.0 0.4 0.57 0.03
80200000.0 330044300.0 336235000.0 0.0 0.4 0.57 0.03
80600000.0 326013800.0 334127900.0 0.0 0.4 0.57 0.03
81000000.0 322023000.0 332028800.0 0.0 0.4 0.57 0.03
81400000.0 318071800.0 329937600.0 0.0 0.4 0.57 0.03
81800000.0 314160000.0 327854500.0 0.0 0.4 0.57 0.03
82200000.0 310287300.0 325779500.0 0.0 0.4 0.57 0.03
82600000.0 306453500.0 323712500.0 0.0 0.4 0.57 0.03
83000000.0 302658600.0 321653800.0 0.0 0.4 0.57 0.03
83400000.0 298902400.0 319603300.0 0.0 0.4 0.57 0.03
83800000.0 295184600.0 317561000.0 0.0 0.4 0.57 0.03
84200000.0 291505000.0 315527100.0 0.0 0.4 0.57 0.03
84600000.0 287863300.0 313501400.0 0.0 0.4 0.57 0.03
85000000.0 284259500.0 311484200.0 0.0 0.4 0.57 0.03
85400000.0 280693100.0 309475300.0 0.0 0.4 0.57 0.03
85800000.0 277163900.0 307475000.0 0.0 0.4 0.57 0.03
86200000.0 273671700.0 305483000.0 0.0 0.4 0.57 0.03
86600000.0 270216300.0 303499600.0 0.0 0.4 0.57 0.03
87000000.0 266797400.0 301524700.0 0.0 0.4 0.57 0.03
87400000.0 263414800.0 299558400.0 0.0 0.4 0.57 0.03
87800000.0 260068300.0 297600700.0 0.0 0.4 0.57 0.03
88200000.0 256757600.0 295651500.0 0.0 0.4 0.57 0.03
88600000.0 253482600.0 293711000.0 0.0 0.4 0.57 0.03
89000000.0 250243000.0 291779200.0 0.0 0.4 0.57 0.03
89400000.0 247038500.0 289856000.0 0.0 0.4 0.57 0.03
89800000.0 243868900.0 287941500.0 0.0 0.4 0.57 0.03
90200000.0 240733900.0 286035800.0 0.0 0.4 0.57 0.03
90600000.0 237633400.0 284138700.0 0.0 0.4 0.57 0.03
91000000.0 234567000.0 282250500.0 0.0 0.4 0.57 0.03
91400000.0 231534600.0 280370900.0 0.0 0.4 0.57 0.03
91800000.0 228535900.0 278500200.0 0.0 0.4 0.57 0.03
92200000.0 225570500.0 276638200.0 0.0 0.4 0.57 0.03
92600000.0 222638200.0 274785100.0 0.0 0.4 0.57 0.03
93000000.0 219738700.0 272940700.0 0.0 0.4 0.57 0.03
93400000.0 216871800.0 271105200.0 0.0 0.4 0.57 0.03
93800000.0 214037100.0 269278500.0 0.0 0.4 0.57 0.03
94200000.0 211234500.0 267460500.0 0.0 0.4 0.57 0.03
94600000.0 208463600.0 265651500.0 0.0 0.4 0.57 0.03
95000000.0 205724300.0 263851200.0 0.0 0.4 0.57 0.03
95400000.0 203016200.0 262059800.0 0.0 0.4 0.57 0.03
95800000.0 200339200.0 260277200.0 0.0 0.4 0.57 0.03
96200000.0 197693000.0 258503400.0 0.0 0.4 0.57 0.03
96600000.0 195077200.0 256738500.0 0.0 0.4 0.57 0.03
97000000.0 192491600.0 254982400.0 0.0 0.4 0.57 0.03
97400000.0 189936100.0 253235200.0 0.0 0.4 0.57 0.03
97800000.0 187410300.0 251496700.0 0.0 0.4 0.57 0.03
98200000.0 184914000.0 249767100.0 0.0 0.4 0.57 0.03
98600000.0 182446900.0 248046300.0 0.0 0.4 0.57 0.03
99000000.0 180008800.0 246334300.0 0.0 0.4 0.57 0.03
99400000.0 177599300.0 244631200.0 0.0 0.4 0.57 0.03
99800000.0 175218200.0 242936800.0 0.0 0.4 0.57 0.03
100200000.0 172865200.0 241251200.0 0.0 0.4 0.57 0.03
100600000.0 170540000.0 239574400.0 0.0 0.4 0.57 0.03
101000000.0 168242400.0 237906300.0 0.0 0.4 0.57 0.03
101400000.0 165972100.0 236247000.0 0.0 0.4 0.57 0.03
101800000.0 163728900.0 234596500.0 0.0 0.4 0.57 0.03
102200000.0 161512500.0 232954700.0 0.0 0.4 0.57 0.03
102600000.0 159322800.0 231321500.0 0.0 0.4 0.57 0.03
103000000.0 157159300.0 229697100.0 0.0 0.4 0.57 0.03
103400000.0 155022000.0 228081400.0 0.0 0.4 0.57 0.03
103800000.0 152910400.0 226474300.0 0.0 0.4 0.57 0.03
104200000.0 150824400.0 224875900.0 0.0 0.4 0.57 0.03
104600000.0 148763800.0 223286200.0 0.0 0.4 0.57 0.03
105000000.0 146728400.0 221705000.0 0.0 0.4 0.57 0.03
105400000.0 144717700.0 220132500.0 0.0 0.4 0.57 0.03
105800000.0 142731600.0 218568500.0 0.0 0.4 0.57 0.03
106200000.0 140769900.0 217013200.0 0.0 0.4 0.57 0.03
106600000.0 138832100.0 215466300.0 0.0 0.4 0.57 0.03
107000000.0 136918200.0 213928000.0 0.0 0.4 0.57 0.03
107400000.0 135027800.0 212398200.0 0.0 0.4 0.57 0.03
107800000.0 133160800.0 210876900.0 0.0 0.4 0.57 0.03
108200000.0 131316800.0 209364000.0 0.0 0.4 0.57 0.03
108600000.0 129495600.0 207859500.0 0.0 0.4 0.57 0.03
109000000.0 127697100.0 206363500.0 0.0 0.4 0.57 0.03
109400000.0 125921000.0 204875900.0 0.0 0.4 0.57 0.03
109800000.0 124167000.0 203396600.0 0.0 0.4 0.57 0.03
110200000.0 122434900.0 201925600.0 0.0 0.4 0.57 0.03
110600000.0 120724500.0 200463000.0 0.0 0.4 0.57 0.03
111000000.0 119035600.0 199008700.0 0.0 0.4 0.57 0.03
111400000.0 117367900.0 197562600.0 0.0 0.4 0.57 0.03
111800000.0 115721200.0 196124800.0 0.0 0.4 0.57 0.03
112200000.0 114095400.0 194695100.0 0.0 0.4 0.57 0.03
112600000.0 112490000.0 193273700.0 0.0 0.4 0.57 0.03
113000000.0 110905000.0 191860400.0 0.0 0.4 0.57 0.03
113400000.0 109340100.0 190455300.0 0.0 0.4 0.57 0.03
113800000.0 107794900.0 189058200.0 0.0 0.4 0.57 0.03
114200000.0 106269500.0 187669300.0 0.0 0.4 0.57 0.03
114600000.0 104763400.0 186288300.0 0.0 0.4 0.57 0.03
115000000.0 103276500.0 184915400.0 0.0 0.4 0.57 0.03
115400000.0 101808600.0 183550400.0 0.0 0.4 0.57 0.03
115800000.0 100359600.0 182193500.0 0.0 0.4 0.57 0.03
116200000.0 98929110.0 180844400.0 0.0 0.4 0.57 0.03
116600000.0 97516980.0 179503200.0 0.0 0.4 0.57 0.03
117000000.0 96123040.0 178169900.0 0.0 0.4 0.57 0.03
117400000.0 94747080.0 176844400.0 0.0 0.4 0.57 0.03
117800000.0 93388910.0 175526700.0 0.0 0.4 0.57 0.03
118200000.0 92048310.0 174216800.0 0.0 0.4 0.57 0.03
118600000.0 90725080.0 172914700.0 0.0 0.4 0.57 0.03
119000000.0 89419010.0 171620200.0 0.0 0.4 0.57 0.03
119400000.0 88129890.0 170333400.0 0.0 0.4 0.57 0.03
119800000.0 86857510.0 169054300.0 0.0 0.4 0.57 0.03
120200000.0 85601680.0 167782800.0 0.0 0.4 0.57 0.03
120600000.0 84362200.0 166518800.0 0.0 0.4 0.57 0.03
121000000.0 83138890.0 165262400.0 0.0 0.4 0.57 0.03
121400000.0 81931560.0 164013500.0 0.0 0.4 0.57 0.03
121800000.0 80740050.0 162772100.0 0.0 0.4 0.57 0.03
122200000.0 79564180.0 161538100.0 0.0 0.4 0.57 0.03
122600000.0 78403740.0 160311500.0 0.0 0.4 0.57 0.03
123000000.0 77258550.0 159092300.0 0.0 0.4 0.57 0.03
123400000.0 76128440.0 157880400.0 0.0 0.4 0.57 0.03
123800000.0 75013260.0 156675900.0 0.0 0.4 0.57 0.03
124200000.0 73912830.0 155478600.0 0.0 0.4 0.57 0.03
124600000.0 72826960.0 154288600.0 0.0 0.4 0.57 0.03
125000000.0 71755480.0 153105800.0 0.0 0.4 0.57 0.03
125400000.0 70698190.0 151930200.0 0.0 0.4 0.57 0.03
125800000.0 69654930.0 150761700.0 0.0 0.4 0.57 0.03
126200000.0 68625520.0 149600300.0 0.0 0.4 0.57 0.03
126600000.0 67609790.0 148446000.0 0.0 0.4 0.57 0.03
127000000.0 66607570.0 147298700.0 0.0 0.4 0.57 0.03
127400000.0 65618710.0 146158400.0 0.0 0.4 0.57 0.03
127800000.0 64643050.0 145025000.0 0.0 0.4 0.57 0.03
128200000.0 63680440.0 143898700.0 0.0 0.4 0.57 0.03
128600000.0 62730730.0 142779100.0 0.0 0.4 0.57 0.03
129000000.0 61793740.0 141666500.0 0.0 0.4 0.57 0.03
129400000.0 60869320.0 140560700.0 0.0 0.4 0.57 0.03
129800000.0 59957340.0 139461700.0 0.0 0.4 0.57 0.03
130200000.0 59057640.0 138369400.0 0.0 0.4 0.57 0.03
130600000.0 58170080.0 137283900.0 0.0 0.4 0.57 0.03
131000000.0 57294500.0 136205000.0 0.0 0.4 0.57 0.03
131400000.0 56428440.0 100000000.0 0.0 0.5 0.48 0.02
131800000.0 55574710.0 100000000.0 0.0 0.5 0.48 0.02
132200000.0 54732570.0 100000000.0 0.0 0.5 0.48 0.02
132600000.0 53901870.0 100000000.0 0.0 0.5 0.48 0.02
133000000.0 53082470.0 100000000.0 0.0 0.5 0.48 0.02
133400000.0 52274230.0 100000000.0 0.0 0.5 0.48 0.02
133800000.0 51477010.0 100000000.0 0.0 0.5 0.48 0.02
134200000.0 50690690.0 100000000.0 0.0 0.5 0.48 0.02
134600000.0 49915150.0 100000000.0 0.0 0.5 0.48 0.02
135000000.0 49150200.0 100000000.0 0.0 0.5 0.48 0.02
135400000.0 48395750.0 100000000.0 0.0 0.5 0.48 0.02
135800000.0 47651660.0 100000000.0 0.0 0.5 0.48 0.02
136200000.0 46917800.0 100000000.0 0.0 0.5 0.48 0.02
136600000.0 46194060.0 100000000.0 0.0 0.5 0.48 0.02
137000000.0 45480290.0 100000000.0 0.0 0.5 0.48 0.02
137400000.0 44776370.0 100000000.0 0.0 0.5 0.48 0.02
137800000.0 44082150.0 100000000.0 0.0 0.5 0.48 0.02
138200000.0 43397520.0 100000000.0 0.0 0.5 0.48 0.02
138600000.0 42722340.0 100000000.0 0.0 0.5 0.48 0.02
139000000.0 42056500.0 100000000.0 0.0 0.5 0.48 0.02
139400000.0 41399880.0 100000000.0 0.0 0.5 0.48 0.02
139800000.0 40752360.0 100000000.0 0.0 0.5 0.48 0.02
140200000.0 40113850.0 100000000.0 0.0 0.5 0.48 0.02
140600000.0 39484220.0 100000000.0 0.0 0.5 0.48 0.02
141000000.0 38863340.0 100000000.0 0.0 0.5 0.48 0.02
141400000.0 38251120.0 100000000.0 0.0 0.5 0.48 0.02
141800000.0 37647450.0 100000000.0 0.0 0.5 0.48 0.02
142200000.0 37052220.0 100000000.0 0.0 0.5 0.48 0.02
142600000.0 36465320.0 100000000.0 0.0 0.5 0.48 0.02
143000000.0 35886640.0 100000000.0 0.0 0.5 0.48 0.02
143400000.0 35316070.0 100000000.0 0.0 0.5 0.48 0.02
143800000.0 34753490.0 100000000.0 0.0 0.5 0.48 0.02
144200000.0 34198800.0 100000000.0 0.0 0.5 0.48 0.02
144600000.0 33651900.0 100000000.0 0.0 0.5 0.48 0.02
145000000.0 33112680.0 100000000.0 0.0 0.5 0.48 0.02
145400000.0 32581060.0 100000000.0 0.0 0.5 0.48 0.02
145800000.0 32056930.0 100000000.0 0.0 0.5 0.48 0.02
146200000.0 31540210.0 100000000.0 0.0 0.5 0.48 0.02
146600000.0 31030770.0 100000000.0 0.0 0.5 0.48 0.02
147000000.0 30528550.0 100000000.0 0.0 0.5 0.48 0.02
147400000.0 30033440.0 100000000.0 0.0 0.5 0.48 0.02
147800000.0 29545360.0 100000000.0 0.0 0.5 0.48 0.02
148200000.0 29064220.0 100000000.0 0.0 0.5 0.48 0.02
148600000.0 28589920.0 100000000.0 0.0 0.5 0.48 0.02
149000000.0 28122360.0 100000000.0 0.0 0.5 0.48 0.02
